Time (s),Percentage Distance (%)
0.0,97.86101168172814
0.015016794204711914,97.86101168172814
0.03202509880065918,97.86101168172814
0.05052661895751953,97.86101168172814
0.064544677734375,97.86101168172814
0.08527660369873047,97.86101168172814
0.09673094749450684,97.86101168172814
0.1131443977355957,97.86101168172814
0.1293778419494629,97.86101168172814
0.14568686485290527,97.86101168172814
0.16328883171081543,97.86101168172814
0.1788010597229004,97.86101168172814
0.1960604190826416,97.86101168172814
0.21189379692077637,97.86101168172814
0.22878694534301758,97.86101168172814
0.24532413482666016,97.86101168172814
0.2612285614013672,97.47673521732352
0.277385950088501,96.4923335504271
0.29448723793029785,95.17219876054496
0.31235456466674805,93.89972651128336
0.32838010787963867,92.91655553121882
0.34438061714172363,92.48614596182676
0.3615400791168213,91.96473664168818
0.3782355785369873,91.52801553702552
0.394655704498291,91.0598487448091
0.41305088996887207,90.65971971218372
0.42873644828796387,90.35896731817866
0.44545602798461914,90.39665833415621
0.4618349075317383,91.17803725330347
0.47862839698791504,91.43484125174488
0.4953479766845703,91.81329350760846
0.5113852024078369,92.2014587720856
0.5269911289215088,92.44963728219659
0.5433123111724854,92.87709116009508
0.558847188949585,93.2899794592333
0.5760238170623779,93.57690524471214
0.5916707515716553,94.02263111391854
0.6084530353546143,94.45768326253501
0.6241235733032227,95.23541617253952
0.6409621238708496,96.3508610773821
0.6612203121185303,97.32366708890152
0.6737065315246582,98.48092513697233
0.6899898052215576,98.98591281601735
0.7067403793334961,99.83856063930398
0.7230665683746338,100.52167165908325
0.7392838001251221,101.3846071889565
0.7556512355804443,102.2517633109024
0.772010087966919,103.12644045594
0.7886874675750732,104.00624583788769
0.8039336204528809,104.53802725970678
0.8210265636444092,104.89061351644749
0.8382630348205566,104.89061351644749
0.8536376953125,105.24709852447329
0.8686795234680176,105.60917851547174
0.8855595588684082,105.79372456553085
0.903249979019165,106.15408398783315
0.9214029312133789,106.15408398783315
0.936988353729248,106.15998368730777
0.9544906616210938,106.34084464146987
0.9709384441375732,106.35405928786948
0.9870712757110596,106.55064869180593
1.0030291080474854,106.5585333946621
1.019674301147461,106.5585333946621
1.037034273147583,106.38392982891283
1.0524883270263672,104.82943003928906
1.0707926750183105,103.10214529454991
1.0865144729614258,101.36667603853948
1.10337495803833,99.8064250926798
1.1196315288543701,98.75957566519283
1.137033224105835,97.35332714552638
1.1521542072296143,95.58811772124884
1.169023036956787,93.46518250832916
1.1865134239196777,91.16128225168214
1.2027795314788818,89.04294013175839
1.2212204933166504,86.75207482311066
1.237563133239746,82.54747247933342
1.2546367645263672,79.22848075087109
1.2701852321624756,75.73499338380365
1.2856309413909912,72.24172650449282
1.3032257556915283,68.92335773111282
1.3191094398498535,65.97026092442688
1.3366589546203613,63.39011068612276
1.3527405261993408,61.00913550417103
1.369835615158081,59.16862085569482
1.3862783908843994,58.02235035483629
1.402113437652588,57.38729299593006
1.417119026184082,56.41196481663127
1.4341204166412354,55.322090200012774
1.450362205505371,54.39540497810443
1.4663095474243164,54.07968621510214
1.4821979999542236,54.07968621510214
1.4987990856170654,54.07968621510214
1.5178802013397217,54.07968621510214
1.5334386825561523,54.07968621510214
1.551295518875122,54.07968621510214
1.5682930946350098,53.90739215503573
1.5843603610992432,53.59278888742289
1.5999243259429932,53.623278275553
1.6170728206634521,53.623278275553
1.6326472759246826,53.451227736937255
1.650338888168335,52.99863101127688
1.666412115097046,52.41231062645541
1.684399127960205,52.10451178736684
1.6995327472686768,51.96889076126063
1.7185277938842773,51.83409369455195
1.7347700595855713,51.22580118990741
1.7502565383911133,50.83245765692952
1.768453598022461,50.404841502353584
1.7849757671356201,49.9815132540589
1.800854206085205,49.6869419315366
1.816704511642456,49.73149994841403
1.833984136581421,49.73149994841403
1.8502569198608398,49.73149994841403
1.8665790557861328,49.607868356052784
1.8842048645019531,49.53175261097094
1.8988566398620605,49.41071282612889
1.9150025844573975,49.242556522900784
1.9312503337860107,49.29061544636754
1.9473493099212646,49.29061544636754
1.963012933731079,49.29061544636754
1.9787614345550537,49.29061544636754
1.995262861251831,49.29061544636754
2.0122787952423096,49.29061544636754
2.028132438659668,48.78692320005084
2.0450167655944824,48.500844884051816
2.0608532428741455,48.383540577942355
2.0771288871765137,48.26721710510863
2.0941355228424072,48.31877536620537
2.10972261428833,48.31877536620537
2.1265454292297363,48.31877536620537
2.143460512161255,48.15188157392964
2.160850763320923,47.98504399541127
2.1775317192077637,47.484874466594654
2.195514440536499,46.981981297327906
2.2113208770751953,46.548199719591
2.228262186050415,45.604010510255435
2.244159698486328,45.31165901787531
2.260835886001587,45.029622979753356
2.275836944580078,44.687394587060254
2.293203353881836,44.598430313581396
2.3097901344299316,44.66995787133353
2.3261404037475586,44.66995787133353
2.342738389968872,44.66995787133353
2.359125852584839,44.66995787133353
2.375120162963867,44.66995787133353
2.392226457595825,44.66995787133353
2.4074630737304688,44.66995787133353
2.423701524734497,44.66995787133353
2.440985679626465,44.51066098941788
2.4582712650299072,44.32943252439417
2.4739742279052734,43.93032364707407
2.489645481109619,43.77566345927353
2.505843162536621,43.85549999954056
2.522430658340454,43.85549999954056
2.5393259525299072,43.85549999954056
2.5549705028533936,43.85549999954056
2.5709824562072754,43.85549999954056
2.5883285999298096,43.85549999954056
2.6068899631500244,43.85549999954056
2.621661424636841,43.70022545498666
2.6385817527770996,43.464692135403176
2.6559109687805176,42.838473611562776
2.67332124710083,42.05684421194913
2.688347101211548,41.59117305685679
2.7037575244903564,41.43626097749309
2.72214674949646,41.28150764272429
2.7368781566619873,40.81821815209155
2.753446578979492,40.51018574681458
2.7718729972839355,39.81223612273744
2.7869019508361816,39.04709985533192
2.8032422065734863,39.04709985533192
2.820902109146118,39.04709985533192
2.8364295959472656,38.742334277935285
2.8512070178985596,38.43833153431365
2.867227554321289,38.43833153431365
2.883864164352417,38.43833153431365
2.9010848999023438,38.43833153431365
2.917018175125122,38.286621905424035
2.933964490890503,38.13510986778271
2.9516830444335938,37.68178312123805
2.9677939414978027,36.93041801885271
2.9836483001708984,35.98092979466338
3.0012288093566895,35.00133330560987
3.017301321029663,34.19647555659571
3.0330896377563477,33.55981213753139
3.0499801635742188,32.94794557169086
3.0674123764038086,32.36228237561375
3.0839507579803467,32.064486901071874
3.10221266746521,31.281249460074413
3.1184396743774414,30.65230984706791
3.134369134902954,30.160989109309927
3.151291608810425,29.679035726335645
3.1669862270355225,29.55990343054428
3.1829776763916016,29.452739141608635
3.2011983394622803,29.350388491868067
3.2172768115997314,29.252902007542975
3.232034921646118,29.13936715894941
3.249025583267212,28.802441868334284
3.265815019607544,28.716927998526064
3.2825798988342285,28.881885343060397
3.2975428104400635,29.01959855804131
3.3145177364349365,29.01959855804131
3.3331613540649414,28.91254496605536
3.348496913909912,28.980092801342405
3.365736961364746,28.914129924346526
3.381887674331665,28.81198665114374
3.3984148502349854,28.896690601797133
3.415191411972046,28.89298999834415
3.432004928588867,29.01696651426845
3.44842529296875,29.030650536021422
3.465674638748169,29.08689778629062
3.4819254875183105,29.312891972576573
3.49672269821167,29.391995187444053
3.512861728668213,29.391995187444053
3.529144763946533,29.391995187444053
3.5454797744750977,29.391995187444053
3.5617151260375977,29.315497447180412
3.578139066696167,29.239844424422408
3.5936293601989746,29.408621383682636
3.6098837852478027,29.58469767816118
3.625562906265259,29.836114930777562
3.643462896347046,30.023932219951988
3.6596755981445312,30.318594332604015
3.676304578781128,31.06515083198737
3.6922900676727295,31.51041205745917
3.7085983753204346,31.98005317424807
3.7255167961120605,32.30369950984675
3.742292642593384,32.51720444723111
3.758091926574707,32.81787393680566
3.7738139629364014,33.12042608361951
3.7900781631469727,33.29109533514969
3.807250738143921,33.29109533514969
3.823349952697754,33.29109533514969
3.838892936706543,33.29109533514969
3.854815721511841,33.29109533514969
3.8711726665496826,33.29109533514969
3.887977361679077,33.29109533514969
3.903226375579834,33.42480976383161
3.919203758239746,33.73097539496238
3.9363017082214355,34.038874893306556
3.9509646892547607,34.3817995189845
3.9681038856506348,34.55331182552832
3.9851882457733154,34.55331182552832
4.003238201141357,34.691848585469906
4.017882585525513,35.035357964971176
4.036322832107544,35.347453162202584
4.052358865737915,36.03565431908625
4.06758189201355,36.52239432554551
4.084671974182129,36.86707852255818
4.100956201553345,37.52864331156754
4.11769962310791,38.192347287476245
4.135617017745972,38.68512086955481
4.151023626327515,39.204049426046616
4.167210340499878,39.89617531096597
4.182862281799316,40.242329361461124
4.199723243713379,40.761669970266006
4.216210603713989,41.25781879930375
4.233648061752319,41.40860299623089
4.249331951141357,41.58199012008593
4.265061616897583,41.58199012008593
4.28114652633667,41.58199012008593
4.297388553619385,41.58199012008593
4.314108848571777,41.58199012008593
4.32990026473999,41.58199012008593
4.345661401748657,41.58199012008593
4.36162543296814,41.58199012008593
4.377447605133057,41.58199012008593
4.394525766372681,41.58199012008593
4.411956310272217,41.58199012008593
4.427495241165161,41.777698749674684
4.444324254989624,41.777698749674684
4.4611029624938965,41.777698749674684
4.476941108703613,41.777698749674684
4.4940571784973145,41.82447411718185
4.509399175643921,41.608798614361625
4.5262041091918945,41.445476202999565
4.5423760414123535,41.27447643633357
4.557720422744751,40.96950170879796
4.574456214904785,41.00714226591605
4.591320514678955,41.00714226591605
4.6074535846710205,41.00714226591605
4.62396502494812,41.00714226591605
4.640325546264648,41.00714226591605
4.657547950744629,41.00714226591605
4.673121929168701,40.83655139642387
4.6885902881622314,40.914282699176894
4.70649790763855,40.994847667372525
4.723337650299072,41.12097164871641
4.739516019821167,41.34510415608943
4.755435943603516,41.48783987660041
4.771176815032959,41.73928919429429
4.7871294021606445,42.007418571728486
4.803253650665283,42.29191075693834
4.819793462753296,42.47032421188759
4.835575819015503,42.75602355863506
4.854013919830322,43.10614447142005
4.869235277175903,43.591028968855134
4.8852550983428955,44.08859911184575
4.901618003845215,44.52747397456897
4.917959928512573,44.82937020135814
4.93438982963562,45.06048249507784
4.950082778930664,45.06048249507784
4.966784477233887,45.06048249507784
4.98395562171936,45.06048249507784
5.000996828079224,45.06048249507784
5.019615888595581,45.13263161288417
5.035340070724487,45.51079661869622
5.051547527313232,45.817549426663696
5.068003177642822,46.27766212064665
5.0846076011657715,47.21388037557545
5.1020894050598145,48.16044616612381
5.118052005767822,49.20035002826015
5.13438868522644,49.929836326708546
5.148832321166992,50.340552680897645
5.166675090789795,50.75396488889656
5.18338942527771,51.08126902175829
5.199638843536377,51.17000760980254
5.21555495262146,51.409460679553284
5.232041120529175,51.49882023017904
5.24811315536499,51.828494102884584
5.263586044311523,52.3991938123744
5.281673908233643,52.78867628669549
5.299179792404175,53.12012229349543
5.315272092819214,53.54459738552637
5.330986022949219,53.78540710920444
5.348185062408447,54.02627444541553
5.365168571472168,54.02627444541553
5.3809590339660645,54.02627444541553
5.398129940032959,54.02627444541553
5.413801193237305,54.02627444541553
5.432279348373413,54.02627444541553
5.448290824890137,53.841611298129465
5.464404106140137,53.29754106191453
5.482027053833008,52.51014593771086
5.499358415603638,51.377657547585976
5.514343023300171,49.558884176675086
5.529741525650024,49.01121771280689
5.544463396072388,47.53117546162235
5.560920000076294,46.45063253843726
5.577429533004761,46.0728875763853
5.5946526527404785,45.76984868628512
5.610990047454834,45.468149703545514
5.627288341522217,44.27529884543218
5.643161773681641,43.269200152984176
5.6584837436676025,42.29191075693834
5.675420761108398,41.454689379995216
5.692203760147095,40.95906057883768
5.709134817123413,40.853006890730846
5.725848913192749,40.800999854642335
5.741998910903931,40.800999854642335
5.7581610679626465,40.800999854642335
5.774661064147949,40.800999854642335
5.791108846664429,40.800999854642335
5.8075175285339355,40.74967617263755
5.823215961456299,40.59983099416794
5.838823318481445,40.409758660025865
5.855628967285156,40.18801171664232
5.872268915176392,39.945536393438445
5.888919353485107,39.6958084115056
5.90431809425354,39.80034001687018
5.9211649894714355,39.97764572931259
5.9364964962005615,40.090587935530344
5.953978776931763,40.090587935530344
5.970945596694946,40.090587935530344
5.988113641738892,40.090587935530344
6.0055317878723145,40.090587935530344
6.0222673416137695,40.090587935530344
6.037811040878296,40.090587935530344
6.054816007614136,40.071913407965184
6.071100473403931,40.178888272256046
6.087958097457886,40.61450189324789
6.103282451629639,40.909802215568
6.119032382965088,41.25337562678851
6.136898517608643,41.62311388414061
6.152356147766113,41.810958489480434
6.167960166931152,41.818630057473
6.184096574783325,41.99323430957375
6.200810194015503,41.99323430957375
6.217580080032349,41.99323430957375
6.235186576843262,41.99323430957375
6.2508862018585205,41.99323430957375
6.2681074142456055,41.99323430957375
6.284314155578613,41.99323430957375
6.300113916397095,41.99323430957375
6.316646575927734,41.99323430957375
6.334017515182495,41.99323430957375
6.351302146911621,41.99323430957375
6.367619752883911,41.99323430957375
6.384045839309692,41.99323430957375
6.400809049606323,41.99323430957375
6.417030334472656,41.99323430957375
6.434155464172363,41.99323430957375
6.4506518840789795,41.99323430957375
6.467256546020508,41.99323430957375
6.484195232391357,42.01069118288646
6.499277353286743,42.042313290666854
6.515443801879883,42.08044625718958
6.533376693725586,42.14138723158081
6.548176050186157,42.04013321928162
6.5651373863220215,41.777698749674684
6.580647945404053,41.82447411718185
6.598987579345703,41.82447411718185
6.6133997440338135,41.67592766894834
6.63103985786438,41.38166480841345
6.647611618041992,41.09124277579574
6.664380073547363,40.74630228096005
6.681433200836182,40.08601538623187
6.698979139328003,39.22508435963693
6.7148096561431885,38.36474168156251
6.7313172817230225,37.6769182355026
6.747585773468018,36.98951962038081
6.764540910720825,36.47426390398587
6.780203104019165,36.13090570814751
6.796963214874268,35.78766791636474
6.812275648117065,35.616095259872296
6.828257083892822,35.616095259872296
6.843960523605347,35.616095259872296
6.85996413230896,35.616095259872296
6.87711238861084,35.616095259872296
6.893504619598389,35.273044674829634
6.909823656082153,34.75871262834631
6.925577640533447,34.244684897576505
6.941497325897217,33.55981213753139
6.9583580493927,33.046550062150175
6.974595308303833,32.57071374778452
6.991332530975342,31.888211261959597
7.007485389709473,31.37681556735053
7.0244200229644775,31.03612556060599
7.042037725448608,30.865855083159506
7.058438062667847,30.865855083159506
7.075988531112671,30.52546733716039
7.092635631561279,30.185289628178225
7.109819173812866,29.84532913823329
7.127382516860962,29.50559337565448
7.143934965133667,29.166090193527296
7.160033464431763,28.826827809385975
7.177687644958496,28.657289589340373
7.19351601600647,28.487814826246733
7.209760427474976,27.810573538892314
7.226292848587036,26.92080564906474
7.24316668510437,26.200179942180423
7.258749008178711,25.64865950187932
7.275335788726807,25.43575424336605
7.291967153549194,25.266435746063177
7.308398485183716,24.672409632882864
7.325334072113037,24.250264965103554
7.341351509094238,24.04022532144498
7.357378959655762,23.66042511523775
7.374175310134888,23.072719979322823
7.390231132507324,22.795640143971553
7.4059154987335205,22.184349195502158
7.421437740325928,21.53020330764873
7.4391090869903564,21.062536200471968
7.458439826965332,20.83576453838532
7.471216917037964,20.636868119833355
7.4878830909729,20.627983767787903
7.504062175750732,20.627983767787903
7.519879579544067,20.627983767787903
7.538804292678833,20.62576208183113
7.55405855178833,20.450980094130973
7.57086181640625,20.287495617146774
7.586280107498169,19.963397011270924
7.602266073226929,19.844440583171203
7.618399143218994,19.602024713023308
7.6354148387908936,19.57395050663401
7.653331279754639,19.471449951354288
7.6681530475616455,19.20604701682396
7.685638666152954,19.208432910580463
7.702121019363403,19.345521710664435
7.717737436294556,19.34789040504435
7.734720230102539,19.230686978019644
7.751765727996826,19.15507715547839
7.767280101776123,19.320237567579955
7.783940076828003,19.320237567579955
7.800903081893921,19.320237567579955
7.818156957626343,19.320237567579955
7.835273742675781,19.099972902402527
7.850960731506348,19.214793845570817
7.8675315380096436,19.30600068530037
7.883069038391113,19.19809189615099
7.899030923843384,19.202069868447918
7.916062831878662,19.226714926551473
7.932601690292358,19.271947783123107
7.948699474334717,19.35815139812734
7.965286493301392,19.451827402833118
7.981257200241089,19.566925661245378
7.997341632843018,19.436115100266854
8.01377534866333,19.661160838093252
8.0287446975708,19.65183538578773
8.046050786972046,19.78121946877847
8.061204433441162,19.94502437419105
8.077301979064941,20.255092873407293
8.093684196472168,20.450980094130973
8.109692811965942,20.949092631177223
8.126834154129028,21.18474788025462
8.14298963546753,21.38211999857102
8.158767461776733,21.529493805306917
8.174488306045532,21.67727504332788
8.190703630447388,21.67727504332788
8.207090377807617,21.67727504332788
8.223388910293579,21.67727504332788
8.24020266532898,21.67727504332788
8.25594711303711,21.67727504332788
8.271833419799805,21.67727504332788
8.289457082748413,21.67727504332788
8.305684804916382,21.88277138285581
8.324115991592407,22.156789275307936
8.341488599777222,22.22287566361708
8.356999397277832,22.59912233780638
8.375939130783081,23.13817088454151
8.391415357589722,23.686880457909385
8.406794786453247,24.562578811914175
8.423321008682251,25.29181518711922
8.43892502784729,26.097365015596825
8.455846548080444,26.355389092905774
8.471126079559326,26.51775542645778
8.48691463470459,26.680278735205974
8.502930402755737,26.680278735205974
8.519174575805664,26.680278735205974
8.5354323387146,26.680278735205974
8.553383350372314,26.680278735205974
8.570890426635742,26.680278735205974
8.586724281311035,27.59718791133591
8.602339267730713,28.253600261575144
8.617603302001953,28.91201662731664
8.63441252708435,29.24193402954367
8.65089750289917,29.407063077107477
8.668725967407227,29.572303152876845
8.684150218963623,29.847376353596555
8.701117753982544,30.291375186417014
8.716907978057861,30.90591589721449
8.733778953552246,31.407471489626694
8.749084949493408,31.74225144632602
8.766228914260864,31.74225144632602
8.782036304473877,32.07734708543357
8.798836469650269,32.41274861600721
8.817358016967773,32.916404001519105
8.832469940185547,34.04784902341062
8.849322319030762,34.38535365255327
8.865766048431396,34.554195982891486
8.881129026412964,34.67863650143973
8.898094654083252,34.84781123163493
8.91536808013916,35.482458965848764
8.931928396224976,36.63056080459246
8.948348760604858,37.78420531185871
8.96463942527771,38.56489447783416
